# QTMix Mixer Data
# 
# IV data file: /data/simulations/saturation/plot-6/31Jul03_akima_spline.IV
# KK data file: /data/MultiTone/branches/SuperMix-numerics-branch/build/31Jul03_akima_spline.KK
# 
# Impedances:
#  IF:  2.5 + 0i
#  Fundamental:  1 + 0i
#  Harmonic 1 :  1 + 0i
#  Harmonic 2 :   1 + 0i
# 
# Actual Impedances:
#  IF:  2.5 + -0i
#  EmbImp.Z = 1 + 0i
#  LO:  1 + -0i
# Operating Point:
# Bias       : 0.7
# LO Freq    : 1.7
# LO Voltage : 2.25
# IF Freq    : 0.0742706
# 
# Harmonics : 1
# 
# Scan variable : IF Frequency
# 
# X Axis | Unpump DC | Unpump KK | Pump DC | LSB Gain | USB Gain | IF Output | Noise Temp | LO Fundamental Current 
0.01	0.00079678	3.23933e-05	0.211374	0.04518	0.0356337	0.146395	115.293	0.769983
0.0268	0.00211737	0.000235031	0.211374	0.0660483	0.0446436	0.262514	131.715	0.769983
0.0436	0.00339096	0.000630584	0.211374	0.0878841	0.0566693	0.440191	137.071	0.769983
0.0604	0.00459015	0.00123161	0.211374	0.108646	0.0678362	0.647178	140.637	0.769983
0.0772	0.00568863	0.00205667	0.211374	0.129072	0.078489	0.883873	143.474	0.769983
0.094	0.00666158	0.00313117	0.211374	0.149667	0.0888327	1.15361	146.189	0.769983
0.1108	0.00748615	0.00448989	0.211374	0.170833	0.0990418	1.46233	149.076	0.769983
0.1276	0.00813974	0.00618288	0.211374	0.192973	0.109268	1.81876	152.332	0.769983
0.1444	0.0086299	0.0083115	0.211374	0.21637	0.119524	2.23325	156.323	0.769983
0.1612	0.00908586	0.0109126	0.211374	0.240524	0.129334	2.70372	161.634	0.769983
0.178	0.00954164	0.0139255	0.211374	0.265273	0.138755	3.22945	167.738	0.769983
0.1948	0.00999594	0.0173308	0.211374	0.290347	0.147598	3.80415	174.621	0.769983
0.2116	0.0104486	0.0211235	0.211374	0.315005	0.155412	4.40866	182.53	0.769983
0.2284	0.0108998	0.0253022	0.211374	0.337895	0.161482	5.0018	191.813	0.769983
0.2452	0.0113496	0.0298681	0.211374	0.356477	0.164583	5.49907	203.012	0.769983
0.262	0.0117983	0.0348245	0.211374	0.364511	0.161935	5.70229	217.455	0.769983
0.2788	0.0122459	0.0401761	0.211374	0.341995	0.144643	5.07006	242.338	0.769983
0.2956	0.0126922	0.0459293	0.211374	0.242874	0.0939227	3.1422	356.198	0.769983
0.3124	0.0131373	0.0520917	0.211374	0.173565	0.0600642	2.35818	653.651	0.769983
0.3292	0.0135818	0.0586723	0.211374	0.162612	0.0545035	2.38073	801.423	0.769983
0.346	0.014026	0.0656812	0.211374	0.162381	0.053631	2.48322	863.341	0.769983
0.3628	0.0144704	0.0731297	0.211374	0.164312	0.0535391	2.59629	905.755	0.769983
0.3796	0.0149156	0.081031	0.211374	0.16748	0.0538162	2.71868	938.712	0.769983
0.3964	0.015362	0.0894005	0.211374	0.17136	0.0542311	2.84756	968.223	0.769983
0.4132	0.0158093	0.0982587	0.211374	0.175683	0.0546835	2.98147	997.051	0.769983
0.43	0.0162713	0.107638	0.211374	0.180259	0.0550957	3.11903	1027.5	0.769983
0.4468	0.0167818	0.117542	0.211374	0.184839	0.0553687	3.25742	1062.54	0.769983
0.4636	0.0173373	0.127959	0.211374	0.188945	0.0553683	3.38956	1105.66	0.769983
0.4804	0.0179291	0.138902	0.211374	0.192943	0.0552978	3.52039	1151.27	0.769983
0.4972	0.0185486	0.150387	0.211374	0.196964	0.0551877	3.6521	1199.11	0.769983
0.514	0.0191873	0.162437	0.211374	0.200982	0.0550248	3.78438	1249.91	0.769983
0.5308	0.0198361	0.175084	0.211374	0.204935	0.0547916	3.9164	1304.55	0.769983
0.5476	0.0204863	0.188365	0.211374	0.20878	0.0544924	4.04736	1363.01	0.769983
0.5644	0.0211354	0.202351	0.211374	0.212614	0.0541671	4.17882	1424.24	0.769983
0.5812	0.0218418	0.217086	0.211374	0.216438	0.0538192	4.31018	1488.06	0.769983
0.598	0.022622	0.23257	0.211374	0.22025	0.0534479	4.44076	1554.52	0.769983
0.6148	0.0234599	0.248825	0.211374	0.224052	0.0530548	4.57046	1623.72	0.769983
0.6316	0.0243416	0.2659	0.211374	0.22788	0.0526545	4.69976	1695.14	0.769983
0.6484	0.0252525	0.283855	0.211374	0.231747	0.0522414	4.82895	1769.39	0.769983
0.6652	0.0261773	0.30277	0.211374	0.235637	0.0518048	4.95779	1847.35	0.769983
0.682	0.0271015	0.322744	0.211374	0.23951	0.0513335	5.08577	1929.99	0.769983
0.6988	0.0280154	0.343949	0.211374	0.243351	0.0508285	5.21266	2017.65	0.769983
0.7156	0.029047	0.366551	0.211374	0.247202	0.0503083	5.33916	2109.57	0.769983
0.7324	0.0303066	0.390575	0.211374	0.251092	0.0497811	5.46576	2205.57	0.769983
0.7492	0.0317603	0.416082	0.211374	0.255043	0.0492541	5.59283	2305.4	0.769983
0.766	0.0333816	0.443229	0.211374	0.259066	0.0487282	5.72057	2409.23	0.769983
0.7828	0.0351392	0.472231	0.211374	0.263164	0.048198	5.84903	2517.83	0.769983
0.7996	0.0369995	0.503385	0.211374	0.267331	0.0476609	5.97818	2631.75	0.769983
0.8164	0.0389273	0.537121	0.211374	0.271556	0.0471146	6.10794	2751.59	0.769983
0.8332	0.0409147	0.574157	0.211374	0.275838	0.0465587	6.23831	2877.84	0.769983
0.85	0.0436476	0.615412	0.211374	0.280159	0.0459969	6.36909	3010.37	0.769983
0.8668	0.0476506	0.661123	0.211374	0.284516	0.0454327	6.50002	3149.04	0.769983
0.8836	0.0531588	0.712027	0.211374	0.288932	0.0448679	6.63086	3293.81	0.769983
0.9004	0.0605006	0.769323	0.211374	0.293436	0.0443055	6.76168	3444.61	0.769983
0.9172	0.0701431	0.834967	0.211374	0.298054	0.0437501	6.89273	3601.09	0.769983
0.934	0.0827894	0.91245	0.211374	0.302819	0.0432049	7.02445	3763.11	0.769983
0.9508	0.100416	1.00899	0.211374	0.307737	0.0426665	7.15682	3931.39	0.769983
0.9676	0.128981	1.14113	0.211374	0.312803	0.0421317	7.28968	4106.67	0.769983
0.9844	0.226919	1.36022	0.211374	0.317998	0.0415968	7.42272	4289.86	0.769983
1.0012	0.586412	1.53168	0.211374	0.32329	0.0410599	7.55546	4481.51	0.769983
1.018	0.891163	1.31432	0.211374	0.328671	0.0405279	7.68778	4680.51	0.769983
1.0348	0.946015	1.14142	0.211374	0.334152	0.0400079	7.81992	4885.53	0.769983
1.0516	0.969321	1.03996	0.211374	0.339809	0.0395065	7.95273	5095.42	0.769983
1.0684	0.982539	0.968925	0.211374	0.345703	0.0390238	8.08674	5310.23	0.769983
1.0852	0.990936	0.91712	0.211374	0.351839	0.0385552	8.22179	5530.97	0.769983
1.102	0.997534	0.878618	0.211374	0.358191	0.0380979	8.35742	5757.99	0.769983
1.1188	1.00381	0.850058	0.211374	0.36475	0.0376498	8.49341	5991.8	0.769983
1.1356	1.01104	0.82943	0.211374	0.371515	0.0372109	8.62941	6232.18	0.769983
1.1524	1.0212	0.814931	0.211374	0.378518	0.036786	8.76542	6477.51	0.769983
1.1692	1.03446	0.801743	0.211374	0.385791	0.0363779	8.90159	6726.53	0.769983
1.186	1.04776	0.789968	0.211374	0.393318	0.0359894	9.03794	6977.83	0.769983
1.2028	1.06133	0.780026	0.211374	0.40129	0.0356235	9.17615	7230.8	0.769983
1.2196	1.07546	0.771732	0.211374	0.409822	0.0352811	9.3169	7484.9	0.769983
1.2364	1.09048	0.764539	0.211374	0.418991	0.0349592	9.46045	7740.84	0.769983
1.2532	1.10585	0.757712	0.211374	0.428599	0.0346562	9.60483	7997.03	0.769983
1.27	1.12124	0.751525	0.211374	0.438816	0.0343629	9.7532	8259.77	0.769983
1.2868	1.13672	0.746002	0.211374	0.450728	0.0340786	9.91376	8536.39	0.769983
1.3036	1.15234	0.741063	0.211374	0.465023	0.0338144	10.091	8825.36	0.769983
1.3204	1.1681	0.736532	0.211374	0.482592	0.0335792	10.2912	9126.99	0.769983
1.3372	1.18382	0.732436	0.211374	0.504934	0.033377	10.5255	9448.14	0.769983
1.354	1.1996	0.728865	0.211374	0.534815	0.0332011	10.8141	9810.4	0.769983
1.3708	1.21557	0.725768	0.211374	0.578388	0.0330237	11.2055	10275	0.769983
1.3876	1.23186	0.722921	0.211374	0.667855	0.0328389	11.953	11084	0.769983
1.4044	1.24826	0.72015	0.211374	0.882264	0.0338464	13.6404	11907	0.769983
1.4212	1.26466	0.717505	0.211374	1.01526	0.0365859	14.2679	10659.4	0.769983
1.438	1.28107	0.715023	0.211374	0.99571	0.0379632	13.5422	9396.47	0.769983
1.4548	1.29747	0.7127	0.211374	0.973756	0.0386906	12.9533	8653.03	0.769983
1.4716	1.31387	0.710533	0.211374	0.955699	0.039199	12.4769	8120.04	0.769983
1.4884	1.33026	0.708514	0.211374	0.941026	0.0396012	12.0781	7701.63	0.769983
1.5052	1.34666	0.706638	0.211374	0.928464	0.0399394	11.7319	7354.74	0.769983
1.522	1.36306	0.704911	0.211374	0.917395	0.040233	11.4259	7058.71	0.769983
1.5388	1.37946	0.703319	0.211374	0.907293	0.0404947	11.1504	6799.77	0.769983
1.5556	1.39593	0.701831	0.211374	0.897832	0.0407273	10.9002	6571.51	0.769983
1.5724	1.41243	0.700401	0.211374	0.888979	0.0409291	10.6746	6372.16	0.769983
1.5892	1.42893	0.699003	0.211374	0.882361	0.0411241	10.4747	6193.66	0.769983
1.606	1.44539	0.697606	0.211374	0.877814	0.0413274	10.2934	6026.71	0.769983
1.6228	1.46169	0.696269	0.211374	0.875116	0.0415517	10.1271	5865.52	0.769983
1.6396	1.47786	0.695133	0.211374	0.874174	0.0418157	9.97319	5703.69	0.769983
1.6564	1.49402	0.694246	0.211374	0.8747	0.0421497	9.82746	5531.63	0.769983
1.6732	1.51029	0.693594	0.211374	0.872676	0.0426575	9.67173	5315.12	0.769983
1.69	1.52679	0.69307	0.211374	0.834569	0.0439989	9.34563	4827.53	0.769983
