# QTMix Mixer Data
# 
# IV data file: /data/simulations/saturation/plot-6/31Jul03_akima_spline.IV
# KK data file: /data/MultiTone/branches/SuperMix-numerics-branch/build/31Jul03_akima_spline.KK
# 
# Impedances:
#  IF:  2.5 + 0i
#  Fundamental:  1 + 0i
#  Harmonic 1 :  1 + 0i
#  Harmonic 2 :   1 + 0i
# 
# Actual Impedances:
#  IF:  2.5 + -0i
#  EmbImp.Z = 1 + 0i
#  LO:  1 + -0i
# Operating Point:
# Bias       : 0.35
# LO Freq    : 0.95
# LO Voltage : 1.5
# IF Freq    : 0.01
# 
# Harmonics : 1
# 
# Scan variable : IF Frequency
# 
# X Axis | Unpump DC | Unpump KK | Pump DC | LSB Gain | USB Gain | IF Output | Noise Temp | LO Fundamental Current 
0	0	0	0.209487	0.647161	0.647161	8.31469	19.8528	0.467954
0.0094	0.000749095	2.8613e-05	0.209487	0.459684	0.455487	6.20136	29.8906	0.467954
0.0188	0.00149269	0.000115064	0.209487	0.461813	0.453417	6.20118	30.1633	0.467954
0.0282	0.00222568	0.000260489	0.209487	0.463948	0.451346	6.20041	30.437	0.467954
0.0376	0.00294324	0.000466506	0.209487	0.466017	0.449211	6.19722	30.7112	0.467954
0.047	0.00364053	0.000735127	0.209487	0.467985	0.446981	6.19061	30.9853	0.467954
0.0564	0.0043128	0.00106899	0.209487	0.469833	0.444641	6.18001	31.2586	0.467954
0.0658	0.00495544	0.0014713	0.209487	0.471575	0.44221	6.16571	31.5302	0.467954
0.0752	0.00556397	0.00194594	0.209487	0.473292	0.439751	6.14977	31.8013	0.467954
0.0846	0.00613409	0.00249744	0.209487	0.475042	0.437297	6.1334	32.0736	0.467954
0.094	0.00666158	0.00313117	0.209487	0.476774	0.434803	6.11541	32.3475	0.467954
0.1034	0.0071425	0.00385375	0.209487	0.47846	0.432235	6.09516	32.6245	0.467954
0.1128	0.00757344	0.00467256	0.209487	0.480042	0.429536	6.07143	32.9073	0.467954
0.1222	0.00794962	0.00559732	0.209487	0.481508	0.426694	6.0441	33.197	0.467954
0.1316	0.00826887	0.00664479	0.209487	0.482877	0.423737	6.0137	33.4926	0.467954
0.141	0.0085388	0.00783997	0.209487	0.48416	0.420684	5.98063	33.7937	0.467954
0.1504	0.00879083	0.00919061	0.209487	0.48545	0.417609	5.94703	34.1005	0.467954
0.1598	0.00904758	0.0106796	0.209487	0.487231	0.414747	5.92154	34.4244	0.467954
0.1692	0.00930339	0.0122979	0.209487	0.489261	0.41192	5.89858	34.7633	0.467954
0.1786	0.00955789	0.0140404	0.209487	0.491361	0.409025	5.87459	35.1138	0.467954
0.188	0.00981226	0.0159056	0.209487	0.493426	0.406002	5.84739	35.4736	0.467954
0.1974	0.0100661	0.0178926	0.209487	0.495399	0.402816	5.81557	35.841	0.467954
0.2068	0.0103194	0.0200005	0.209487	0.497241	0.399438	5.77829	36.216	0.467954
0.2162	0.0105722	0.0222292	0.209487	0.49888	0.395809	5.73376	36.5988	0.467954
0.2256	0.0108247	0.0245789	0.209487	0.50024	0.391866	5.67964	36.9867	0.467954
0.235	0.0110767	0.0270496	0.209487	0.50126	0.387534	5.61424	37.3827	0.467954
0.2444	0.0113282	0.0296419	0.209487	0.501823	0.382664	5.53542	37.802	0.467954
0.2538	0.0115795	0.0323563	0.209487	0.501969	0.377229	5.44361	38.2541	0.467954
0.2632	0.0118303	0.0351936	0.209487	0.501797	0.371179	5.33866	38.7495	0.467954
0.2726	0.0120808	0.0381548	0.209487	0.501309	0.364287	5.2162	39.3068	0.467954
0.282	0.012331	0.0412408	0.209487	0.499825	0.355663	5.05364	39.9508	0.467954
0.2914	0.0125807	0.044453	0.209487	0.487556	0.34188	4.71545	40.3438	0.467954
0.3008	0.0128301	0.0477926	0.209487	0.452036	0.321879	4.11524	39.7199	0.467954
0.3102	0.0130791	0.0512611	0.209487	0.407383	0.306019	3.57311	38.1549	0.467954
0.3196	0.0133279	0.0548602	0.209487	0.375075	0.297833	3.27236	36.8906	0.467954
0.329	0.0135765	0.0585915	0.209487	0.356404	0.294406	3.1439	36.2723	0.467954
0.3384	0.013825	0.0624568	0.209487	0.346301	0.291925	3.08263	36.1726	0.467954
0.3478	0.0140736	0.066458	0.209487	0.338994	0.289209	3.03728	36.3129	0.467954
0.3572	0.0143222	0.0705972	0.209487	0.33287	0.285936	2.9958	36.6417	0.467954
0.3666	0.0145711	0.0748768	0.209487	0.326914	0.281696	2.95057	37.1829	0.467954
0.376	0.0148201	0.079299	0.209487	0.319904	0.275365	2.89221	38.1426	0.467954
0.3854	0.0150695	0.0838667	0.209487	0.311244	0.260592	2.83665	41.7719	0.467954
0.3948	0.0153193	0.0885827	0.209487	0.304974	0.237217	2.83392	50.361	0.467954
0.4042	0.01557	0.0934509	0.209487	0.306029	0.207175	2.93118	68.2916	0.467954
0.4136	0.01582	0.0984759	0.209487	0.315203	0.186371	3.0965	89.1486	0.467954
0.423	0.0160736	0.103665	0.209487	0.325471	0.176679	3.24622	103.994	0.467954
0.4324	0.0163412	0.109022	0.209487	0.334423	0.172647	3.36481	112.886	0.467954
0.4418	0.0166248	0.114541	0.209487	0.342619	0.170239	3.46757	119.648	0.467954
0.4512	0.0169233	0.12022	0.209487	0.350458	0.168696	3.56082	125.125	0.467954
0.4606	0.0172352	0.126061	0.209487	0.358121	0.167717	3.64724	129.661	0.467954
0.47	0.0175589	0.132065	0.209487	0.36571	0.167158	3.72781	133.413	0.467954
0.4794	0.017893	0.138236	0.209487	0.373259	0.166881	3.80252	136.539	0.467954
0.4888	0.0182359	0.144575	0.209487	0.380717	0.166766	3.87069	139.179	0.467954
0.4982	0.0185862	0.151088	0.209487	0.388021	0.166721	3.93172	141.45	0.467954
0.5076	0.0189423	0.157778	0.209487	0.39518	0.166706	3.9854	143.407	0.467954
0.517	0.0193027	0.164651	0.209487	0.402186	0.166695	4.03074	145.057	0.467954
0.5264	0.0196656	0.171712	0.209487	0.409097	0.166674	4.06556	146.348	0.467954
0.5358	0.0200303	0.178969	0.209487	0.417909	0.166625	4.08516	147.139	0.467954
0.5452	0.0203942	0.186427	0.209487	0.436806	0.166324	4.09949	148.19	0.467954
0.5546	0.0207539	0.194102	0.209487	0.473357	0.165264	4.14687	151.833	0.467954
0.564	0.0211195	0.202009	0.209487	0.510128	0.163673	4.22913	157.87	0.467954
0.5734	0.0215038	0.210152	0.209487	0.540078	0.162008	4.31736	164.492	0.467954
0.5828	0.0219133	0.218529	0.209487	0.562336	0.16043	4.39278	170.674	0.467954
0.5922	0.0223455	0.227139	0.209487	0.582707	0.158842	4.45565	176.597	0.467954
0.6016	0.0227971	0.235987	0.209487	0.6028	0.157137	4.50821	182.577	0.467954
0.611	0.023266	0.245078	0.209487	0.62333	0.155224	4.54926	188.809	0.467954
0.6204	0.0237497	0.254423	0.209487	0.644716	0.152911	4.57278	195.569	0.467954
0.6298	0.0242455	0.26403	0.209487	0.663751	0.149064	4.54106	204.368	0.467954
0.6392	0.0247509	0.273909	0.209487	0.655832	0.139993	4.36589	222.773	0.467954
0.6486	0.0252634	0.284074	0.209487	0.609234	0.124989	4.05853	259.791	0.467954
0.658	0.0257802	0.29454	0.209487	0.524375	0.107633	3.75625	324.237	0.467954
0.6674	0.0262988	0.305324	0.209487	0.457464	0.0968725	3.63845	387.717	0.467954
0.6768	0.0268171	0.316441	0.209487	0.417067	0.0912598	3.62718	435.523	0.467954
0.6862	0.0273292	0.327921	0.209487	0.392119	0.0876446	3.64814	474.921	0.467954
0.6956	0.0278391	0.339805	0.209487	0.373964	0.0848998	3.68071	510.644	0.467954
0.705	0.0283697	0.352122	0.209487	0.359866	0.0826855	3.71947	544.03	0.467954
0.7144	0.0289651	0.364888	0.209487	0.348634	0.0808493	3.76233	575.578	0.467954
0.7238	0.0296366	0.378101	0.209487	0.339734	0.0793049	3.80807	605.488	0.467954
0.7332	0.0303716	0.391755	0.209487	0.332711	0.0779729	3.85557	634.162	0.467954
0.7426	0.0311675	0.405875	0.209487	0.327243	0.0768006	3.90419	661.913	0.467954
0.752	0.0320197	0.420488	0.209487	0.323152	0.0757482	3.95356	689.039	0.467954
0.7614	0.0329227	0.435622	0.209487	0.320325	0.0747843	4.0034	715.826	0.467954
0.7708	0.0338713	0.451315	0.209487	0.31866	0.0738819	4.05336	742.572	0.467954
0.7802	0.0348596	0.467611	0.209487	0.318087	0.0730133	4.10316	769.687	0.467954
0.7896	0.0358818	0.484562	0.209487	0.318477	0.0721491	4.15237	797.69	0.467954
0.799	0.0369317	0.502231	0.209487	0.319544	0.0712574	4.20032	827.223	0.467954
0.8084	0.0380029	0.520701	0.209487	0.320092	0.0702887	4.24581	859.388	0.467954
0.8178	0.0390899	0.540067	0.209487	0.320151	0.0693118	4.29031	893.047	0.467954
0.8272	0.0401842	0.560477	0.209487	0.320314	0.0683479	4.33438	927.849	0.467954
0.8366	0.0413705	0.58216	0.209487	0.320681	0.0673951	4.37803	963.876	0.467954
0.846	0.0428857	0.605202	0.209487	0.321288	0.0664497	4.4212	1001.28	0.467954
0.8554	0.0447872	0.62959	0.209487	0.322151	0.0655068	4.46383	1040.24	0.467954
0.8648	0.0471005	0.655427	0.209487	0.323261	0.0645605	4.50584	1081.04	0.467954
0.8742	0.0498746	0.682847	0.209487	0.324563	0.0636045	4.54711	1123.98	0.467954
0.8836	0.0531588	0.712027	0.209487	0.325755	0.0626332	4.58742	1169.39	0.467954
0.893	0.0570149	0.743195	0.209487	0.326593	0.0616591	4.62692	1217.02	0.467954
0.9024	0.0615169	0.776651	0.209487	0.32731	0.0606902	4.66586	1266.76	0.467954
0.9118	0.0667566	0.81279	0.209487	0.327998	0.0597241	4.70425	1318.84	0.467954
0.9212	0.0728495	0.852157	0.209487	0.328694	0.0587598	4.74207	1373.43	0.467954
0.9306	0.0799386	0.895538	0.209487	0.329467	0.0577954	4.77935	1430.81	0.467954
0.94	0.0883201	0.944209	0.209487	0.330382	0.0568277	4.81605	1491.32	0.467954
