# Output from "simple" SuperMix based program
# Scanning BIAS from 0.010000 to 6.000000 mVolt in steps of 0.010000 mVolt
#
# FREQUENCY 700.000000 GHz
# BIAS 2.000000 mV
# LO_POWER 300.000000 nW
#
# Data from mixer.conf
#
# TEMP 2.500000 K
# Z0 20.000000 Ohms
# IF_FREQ 5.000000 GHz
# IF_Z0 50.000000 Ohms
# HARMONICS 1
#
# IV_CURVE Kennedy-50.IV
# KK_CURVE Kennedy-50.KK
# RNA 20.000000 Ohm*um^2
# SCAP 85.000000 fF/um^2
# AREA 1.000000 um^2
# VGAP 2.820000 mV
#
# TUNER_TYPE BEL_WITH_RFCHOKE
# BELITSKY_INPUT_STRIP 48.500000 6.000000 0.425000
# BELITSKY_TUNING_STRIP 14.500000 5.000000 0.200000
# RF_CHOKE_TYPE FILTER
# FILTER_CHOKE_SECTIONS 3
# FILTER_CHOKE_INPUT 39.000000 6.500000
# FILTER_CHOKE_NARROW 39.000000 6.500000
# FILTER_CHOKE_WIDE 45.000000 13.000000
#
# TOP_DEFAULT NB
# TOP_THICKNESS 4000.000000
# GROUND_DEFAULT NB
# GROUND_THICKNESS 4000.000000
# INSUL_DEFAULT SIO
# INSUL_THICKNESS 4250.000000
# COVER_DEFAULT AIR
# COVER_THICKNESS 100000.000000
#
# NB_PROPERTIES 3.050000 9.400000 5.000000
# NBTIN_PROPERTIES 5.000000 15.750000 30.000000
# SIO_PROPERTIES 5.800000 0.000000
# AIR_PROPERTIES 1.000000 0.000000
#
# End of configuration file data
# 
# building the mixer...
# building tuner...
# tuner complete
# building IV curves...
# IV curves complete
# built mixer
# Junction 1 Embedding Impedance : 0.049507+-0.099651i
# Junction 2 Embedding Impedance : 0.041883+-0.138811i
# 
# Results:
#
# BIAS (mVolt)| LSB Gain | USB Gain | IF Output 0K (K)| IF Output 77K (K)| IF Output 297K (K)| DC Current (junc 1) (uA)| DC Current (junc 2) (uA)
0.010000      0.001122      0.000509      0.044371      0.044464      0.044797      1.284968      0.802581
0.020000      0.002072      0.000977      0.036623      0.036945      0.038095      2.687857      1.681303
0.030000      0.002819      0.001403      0.028572      0.029182      0.031355      4.303590      2.698642
0.040000      0.003420      0.001808      0.022180      0.023100      0.026380      6.158337      3.875315
0.050000      0.003956      0.002225      0.017698      0.018965      0.023478      8.250339      5.216426
0.060000      0.004472      0.002658      0.014651      0.016314      0.022244      10.543949      6.708702
0.070000      0.005007      0.003125      0.012668      0.014809      0.022441      12.993934      8.335650
0.080000      0.005603      0.003661      0.011547      0.014300      0.024114      15.547309      10.078115
0.090000      0.006303      0.004305      0.011172      0.014753      0.027518      18.140552      11.906024
0.100000      0.007153      0.005101      0.011527      0.016271      0.033184      20.697736      13.771644
0.110000      0.008254      0.006146      0.012857      0.019365      0.042569      23.131752      15.611495
0.120000      0.009798      0.007626      0.015835      0.025308      0.059087      25.346060      17.346814
0.130000      0.012044      0.009793      0.021675      0.036479      0.089271      27.237364      18.885933
0.140000      0.015408      0.013047      0.033085      0.058127      0.147435      28.717053      20.142693
0.150000      0.020521      0.018002      0.055968      0.101747      0.265016      29.805725      21.116504
0.160000      0.027844      0.025120      0.099869      0.186261      0.494386      30.572345      21.848714
0.170000      0.037087      0.034140      0.173468      0.329560      0.886297      31.091610      22.388936
0.180000      0.046504      0.043381      0.268550      0.516996      1.403153      31.442210      22.792874
0.190000      0.054404      0.051161      0.363267      0.705858      1.927830      31.705136      23.120315
0.200000      0.060862      0.057504      0.450510      0.881167      2.417266      31.938246      23.415238
0.210000      0.066832      0.063337      0.539142      1.059911      2.917438      32.148844      23.684045
0.220000      0.073501      0.069845      0.647829      1.279334      3.531853      32.337868      23.928402
0.230000      0.081226      0.077381      0.786606      1.559675      4.317155      32.506341      24.150040
0.240000      0.089741      0.085693      0.955354      1.901103      5.274532      32.655235      24.350721
0.250000      0.098014      0.093794      1.134585      2.265056      6.297391      32.785554      24.532262
0.260000      0.105249      0.100907      1.303035      2.608899      7.266865      32.899680      24.697131
0.270000      0.111504      0.107072      1.457078      2.924981      8.160949      33.001127      24.848336
0.280000      0.116869      0.112364      1.594859      3.209340      8.968157      33.093381      24.988896
0.290000      0.121187      0.116626      1.708542      3.446099      9.643939      33.179889      25.121830
0.300000      0.124483      0.119882      1.795829      3.630419      10.174381      33.264082      25.250179
0.310000      0.126915      0.122291      1.859270      3.767255      10.573020      33.348840      25.376550
0.320000      0.128916      0.124277      1.910452      3.879950      10.905138      33.434465      25.501406
0.330000      0.130997      0.126342      1.964279      3.998802      11.255934      33.520494      25.624567
0.340000      0.133327      0.128653      2.026009      4.134567      11.655790      33.606456      25.745833
0.350000      0.135829      0.131134      2.093564      4.283070      12.093043      33.691873      25.864997
0.360000      0.138245      0.133535      2.159115      4.428325      12.522605      33.776265      25.981849
0.370000      0.140408      0.135694      2.217278      4.559205      12.912874      33.859390      26.096341
0.380000      0.142381      0.137667      2.269761      4.679089      13.273190      33.941416      26.208694
0.390000      0.144233      0.139522      2.318633      4.792154      13.615237      34.022549      26.319154
0.400000      0.145978      0.141271      2.364186      4.898967      13.940571      34.102991      26.427962
0.410000      0.147606      0.142905      2.406034      4.998691      14.246744      34.182940      26.535358
0.420000      0.149099      0.144407      2.443495      5.089858      14.529487      34.262583      26.641571
0.430000      0.150495      0.145814      2.477766      5.174906      14.795663      34.341974      26.746706
0.440000      0.151873      0.147204      2.511404      5.259142      15.060392      34.421081      26.850791
0.450000      0.153270      0.148612      2.545644      5.345150      15.331065      34.499866      26.953847
0.460000      0.154677      0.150030      2.580219      5.432370      15.606075      34.578295      27.055893
0.470000      0.156053      0.151418      2.613714      5.517816      15.876835      34.656328      27.156951
0.480000      0.157360      0.152739      2.644877      5.598814      16.135603      34.733936      27.257046
0.490000      0.158615      0.154010      2.674267      5.676506      16.385599      34.811127      27.356223
0.500000      0.159847      0.155258      2.702833      5.752879      16.632507      34.887920      27.454529
0.510000      0.161067      0.156495      2.730948      5.828713      16.878560      34.964330      27.552011
0.520000      0.162271      0.157715      2.758469      5.903693      17.122835      35.040373      27.648713
0.530000      0.163440      0.158902      2.784770      5.976468      17.361391      35.116064      27.744679
0.540000      0.164571      0.160051      2.809704      6.046700      17.593208      35.191412      27.839946
0.550000      0.165683      0.161181      2.833938      6.115800      17.822355      35.266417      27.934538
0.560000      0.166795      0.162312      2.858113      6.185145      18.052826      35.341078      28.028477
0.570000      0.167915      0.163449      2.882494      6.255303      18.286282      35.415395      28.121785
0.580000      0.169032      0.164584      2.906737      6.325533      18.520553      35.489367      28.214482
0.590000      0.170127      0.165699      2.930195      6.394417      18.751480      35.562991      28.306588
0.600000      0.171202      0.166793      2.952896      6.462000      18.979164      35.636270      28.398121
0.610000      0.172267      0.167878      2.975211      6.529082      19.205939      35.709206      28.489099
0.620000      0.173321      0.168950      2.997061      6.595482      19.431254      35.781803      28.579538
0.630000      0.174353      0.170003      3.018139      6.660510      19.653061      35.854061      28.669456
0.640000      0.175360      0.171031      3.038306      6.723847      19.870393      35.925983      28.758872
0.650000      0.176344      0.172036      3.057616      6.785591      20.083510      35.997569      28.847803
0.660000      0.177314      0.173027      3.076382      6.846426      20.294411      36.068819      28.936266
0.670000      0.178280      0.174015      3.094989      6.907196      20.505588      36.139733      29.024275
0.680000      0.179252      0.175009      3.113747      6.968593      20.719086      36.210311      29.111843
0.690000      0.180229      0.176008      3.132656      7.030619      20.934919      36.280554      29.198983
0.700000      0.181201      0.177001      3.151330      7.092407      21.150500      36.350460      29.285708
0.710000      0.182162      0.177984      3.169588      7.153543      21.364590      36.420029      29.372027
0.720000      0.183117      0.178961      3.187597      7.214394      21.578272      36.489263      29.457952
0.730000      0.184071      0.179938      3.205550      7.275397      21.792841      36.558161      29.543491
0.740000      0.185028      0.180917      3.223553      7.336789      22.009008      36.626724      29.628655
0.750000      0.185983      0.181894      3.241465      7.398247      22.225806      36.694951      29.713451
0.760000      0.186930      0.182863      3.259057      7.459247      22.441650      36.762844      29.797889
0.770000      0.187871      0.183827      3.276410      7.519969      22.657076      36.830401      29.881975
0.780000      0.188810      0.184790      3.293679      7.580760      22.873121      36.897623      29.965716
0.790000      0.189743      0.185745      3.310684      7.641204      23.088526      36.964510      30.049121
0.800000      0.190662      0.186688      3.327198      7.700773      23.301680      37.031061      30.132196
0.810000      0.191571      0.187621      3.343294      7.759623      23.513042      37.097276      30.214950
0.820000      0.192471      0.188545      3.359098      7.818039      23.723464      37.163153      30.297393
0.830000      0.193365      0.189463      3.374630      7.876063      23.933063      37.228690      30.379532
0.840000      0.194254      0.190377      3.389967      7.933865      24.142347      37.293887      30.461375
0.850000      0.195143      0.191290      3.405292      7.991872      24.352612      37.358742      30.542929
0.860000      0.196031      0.192204      3.420578      8.050021      24.563662      37.423255      30.624199
0.870000      0.196912      0.193109      3.435558      8.107678      24.773559      37.487425      30.705192
0.880000      0.197784      0.194007      3.450239      8.164855      24.982332      37.551251      30.785913
0.890000      0.198657      0.194906      3.464925      8.222268      25.192160      37.614732      30.866366
0.900000      0.199540      0.195814      3.479918      8.280632      25.405239      37.677869      30.946555
0.910000      0.200436      0.196736      3.495389      8.340362      25.622851      37.740659      31.026487
0.920000      0.201345      0.197669      3.511246      8.401247      25.844359      37.803103      31.106164
0.930000      0.202258      0.198608      3.527262      8.462748      26.068117      37.865198      31.185592
0.940000      0.203171      0.199547      3.543261      8.524446      26.292834      37.926946      31.264774
0.950000      0.204078      0.200480      3.559016      8.585790      26.516803      37.988343      31.343715
0.960000      0.204965      0.201393      3.574082      8.645700      26.736683      38.049392      31.422416
0.970000      0.205824      0.202280      3.588168      8.703453      26.950210      38.110089      31.500882
0.980000      0.206663      0.203146      3.601517      8.759625      27.159139      38.170434      31.579118
0.990000      0.207491      0.204002      3.614489      8.815075      27.366120      38.230424      31.657129
1.000000      0.208316      0.204855      3.627325      8.870385      27.572943      38.290057      31.734921
1.010000      0.209148      0.205716      3.640425      8.926530      27.782646      38.349332      31.812498
1.020000      0.210003      0.206599      3.654290      8.984753      27.999101      38.408247      31.889865
1.030000      0.210880      0.207504      3.668934      9.045097      28.222466      38.466799      31.967025
1.040000      0.211765      0.208418      3.683859      9.106347      28.448971      38.524988      32.043980
1.050000      0.212651      0.209331      3.698778      9.167799      28.676416      38.582813      32.120733
1.060000      0.213535      0.210244      3.713637      9.229316      28.904374      38.640275      32.197285
1.070000      0.214407      0.211145      3.728071      9.289987      29.129984      38.697370      32.273637
1.080000      0.215256      0.212023      3.741691      9.348832      29.350157      38.754100      32.349792
1.090000      0.216088      0.212886      3.754743      9.406448      29.566747      38.810462      32.425753
1.100000      0.216918      0.213745      3.767683      9.463970      29.783305      38.866453      32.501525
1.110000      0.217747      0.214605      3.780626      9.521684      30.000729      38.922072      32.577111
1.120000      0.218579      0.215468      3.793650      9.579788      30.219645      38.977315      32.652515
1.130000      0.219423      0.216343      3.807083      9.639111      30.442672      39.032179      32.727743
1.140000      0.220280      0.217231      3.821001      9.699855      30.670456      39.086662      32.802796
1.150000      0.221138      0.218120      3.834916      9.760788      30.899112      39.140762      32.877679
1.160000      0.221987      0.219000      3.848520      9.821118      31.126132      39.194478      32.952391
1.170000      0.222831      0.219877      3.861983      9.881283      31.352891      39.247808      33.026935
1.180000      0.223674      0.220752      3.875400      9.941514      31.580123      39.300752      33.101312
1.190000      0.224514      0.221624      3.888688      10.001600      31.807149      39.353308      33.175522
1.200000      0.225353      0.222496      3.901960      10.061828      32.034884      39.405474      33.249568
1.210000      0.226198      0.223374      3.915459      10.122827      32.265328      39.457249      33.323450
1.220000      0.227050      0.224259      3.929188      10.184607      32.498517      39.508631      33.397170
1.230000      0.227903      0.225145      3.942937      10.246625      32.732726      39.559617      33.470732
1.240000      0.228746      0.226022      3.956377      10.308025      32.965214      39.610205      33.544137
1.250000      0.229573      0.226883      3.969246      10.368118      33.193764      39.660393      33.617387
1.260000      0.230385      0.227731      3.981640      10.427138      33.419115      39.710177      33.690487
1.270000      0.231191      0.228571      3.993783      10.485667      33.643114      39.759553      33.763439
1.280000      0.231993      0.229409      4.005826      10.544092      33.867003      39.808519      33.836246
1.290000      0.232801      0.230253      4.018087      10.603256      34.093483      39.857070      33.908913
1.300000      0.233633      0.231121      4.031184      10.664793      34.327819      39.905203      33.981440
1.310000      0.234495      0.232018      4.045300      10.729206      34.571658      39.952915      34.053831
1.320000      0.235368      0.232928      4.059825      10.794893      34.819853      40.000205      34.126086
1.330000      0.236240      0.233836      4.074301      10.860643      35.068508      40.047071      34.198204
1.340000      0.237108      0.234741      4.088695      10.926359      35.317308      40.093512      34.270186
1.350000      0.237959      0.235629      4.102461      10.990582      35.561528      40.139526      34.342030
1.360000      0.238767      0.236475      4.114780      11.051099      35.793977      40.185113      34.413738
1.370000      0.239541      0.237288      4.125926      11.108614      36.016907      40.230269      34.485311
1.380000      0.240308      0.238095      4.136885      11.165766      36.238844      40.274989      34.556751
1.390000      0.241082      0.238907      4.148039      11.223582      36.463121      40.319269      34.628063
1.400000      0.241862      0.239728      4.159472      11.282299      36.690510      40.363103      34.699251
1.410000      0.242671      0.240576      4.171888      11.343829      36.927247      40.406487      34.770318
1.420000      0.243523      0.241468      4.185784      11.409546      37.177830      40.449414      34.841268
1.430000      0.244393      0.242378      4.200317      11.477181      37.434895      40.491881      34.912103
1.440000      0.245254      0.243279      4.214554      11.544189      37.690152      40.533886      34.982822
1.450000      0.246105      0.244171      4.228475      11.610505      37.943378      40.575427      35.053425
1.460000      0.246942      0.245050      4.241937      11.675730      38.193257      40.616501      35.123910
1.470000      0.247746      0.245897      4.254282      11.738039      38.433804      40.657109      35.194277
1.480000      0.248519      0.246712      4.265567      11.797566      38.665429      40.697248      35.264525
1.490000      0.249292      0.247528      4.276845      11.857209      38.897602      40.736914      35.334655
1.500000      0.250080      0.248359      4.288689      11.918556      39.135546      40.776102      35.404670
1.510000      0.250879      0.249202      4.300925      11.981135      39.377716      40.814807      35.474572
1.520000      0.251691      0.250059      4.313629      12.045165      39.624842      40.853023      35.544364
1.530000      0.252522      0.250934      4.327011      12.111243      39.878905      40.890743      35.614050
1.540000      0.253359      0.251816      4.340605      12.178071      40.135637      40.927961      35.683632
1.550000      0.254182      0.252684      4.353712      12.243693      40.388595      40.964672      35.753113
1.560000      0.254989      0.253537      4.366316      12.308047      40.637560      41.000872      35.822493
1.570000      0.255787      0.254382      4.378652      12.371788      40.884682      41.036555      35.891773
1.580000      0.256574      0.255216      4.390630      12.434657      41.129099      41.071720      35.960953
1.590000      0.257351      0.256040      4.402249      12.496641      41.370749      41.106361      36.030032
1.600000      0.258130      0.256867      4.413992      12.559105      41.614155      41.140475      36.099010
1.610000      0.258922      0.257707      4.426211      12.623056      41.862654      41.174057      36.167889
1.620000      0.259723      0.258556      4.438721      12.687975      42.114535      41.207101      36.236669
1.630000      0.260520      0.259403      4.451154      12.752808      42.366299      41.239602      36.305353
1.640000      0.261304      0.260236      4.463151      12.816526      42.614521      41.271553      36.373941
1.650000      0.262070      0.261052      4.474571      12.878709      42.857795      41.302947      36.442435
1.660000      0.262823      0.261856      4.485562      12.939776      43.097501      41.333777      36.510839
1.670000      0.263568      0.262653      4.496342      13.000342      43.335677      41.364035      36.579153
