# Output from "simple" SuperMix based program
# Scanning BIAS from 0.010000 to 3.000000 mVolt in steps of 0.010000 mVolt
#
# FREQUENCY 650.000000 GHz
# BIAS 2.000000 mV
# LO_POWER 180.000000 nW
#
# Data from mixer.conf
#
# TEMP 2.500000 K
# Z0 20.000000 Ohms
# IF_FREQ 5.000000 GHz
# IF_Z0 50.000000 Ohms
# HARMONICS 1
#
# IV_CURVE idc.dat
# KK_CURVE ikk.dat
# RNA 20.000000 Ohm*um^2
# SCAP 65.000000 fF/um^2
# AREA 1.000000 um^2
# VGAP 2.820000 mV
#
# TUNER_TYPE BEL_WITH_RFCHOKE
# BELITSKY_INPUT_STRIP 48.000000 6.000000
# BELITSKY_TUNING_STRIP 14.000000 5.000000
# RF_CHOKE_TYPE RADIAL
# RADIAL_CHOKE_TYPE STRAIGHT
# RADIAL_CHOKE_INPUT 39.000000 3.000000 3.000000
# RADIAL_CHOKE_FAN 30.000000 180.000000
#
# TOP_DEFAULT NB
# TOP_THICKNESS 4000.000000
# GROUND_DEFAULT NB
# GROUND_THICKNESS 4000.000000
# INSUL_DEFAULT SIO
# INSUL_THICKNESS 4250.000000
# COVER_DEFAULT AIR
# COVER_THICKNESS 100000.000000
#
# NB_PROPERTIES 3.050000 9.400000 5.000000
# NBTIN_PROPERTIES 5.000000 15.750000 30.000000
# SIO_PROPERTIES 5.800000 0.000400
# AIR_PROPERTIES 1.000000 0.000000
#
# End of configuration file data
# 
# building the mixer...
# building tuner...
# tuner complete
# building IV curves...
# IV curves complete
# built mixer
# Junction 1 Embedding Impedance : 0.098111+-0.120007i
# Junction 2 Embedding Impedance : 0.091201+-0.235358i
# 
# Results:
#
# BIAS (mVolt)| LSB Gain | USB Gain | IF Output 0K (K)| IF Output 77K (K)| IF Output 297K (K)| DC Current (junc 1) (uA)| DC Current (junc 2) (uA)
0.010000      0.000652      0.000861      0.041393      0.041466      0.041721      0.666844      0.657737
0.020000      0.001302      0.001715      0.041135      0.041424      0.042440      1.337025      1.318297
0.030000      0.001951      0.002557      0.040740      0.041386      0.043654      2.013361      1.984010
0.040000      0.002598      0.003385      0.040277      0.041413      0.045404      2.698228      2.656833
0.050000      0.003246      0.004198      0.039823      0.041581      0.047754      3.393817      3.338597
0.060000      0.003899      0.004998      0.039446      0.041955      0.050764      4.100793      4.029724
0.070000      0.004566      0.005793      0.039243      0.042640      0.054566      4.818731      4.729677
0.080000      0.005255      0.006592      0.039293      0.043730      0.059310      5.546996      5.437831
0.090000      0.005976      0.007405      0.039650      0.045303      0.065151      6.283169      6.151939
0.100000      0.006743      0.008247      0.040418      0.047503      0.072380      7.023838      6.868938
0.110000      0.007571      0.009137      0.041693      0.050484      0.081351      7.765530      7.585855
0.120000      0.008476      0.010089      0.043559      0.054400      0.092465      8.503004      8.298202
0.130000      0.009473      0.011122      0.046120      0.059445      0.106233      9.230308      9.000995
0.140000      0.010575      0.012248      0.049462      0.065811      0.123213      9.941928      9.689818
0.150000      0.011795      0.013483      0.053690      0.073727      0.144076      10.633206      10.360980
0.160000      0.013151      0.014845      0.058972      0.083531      0.169755      11.300077      11.011302
0.170000      0.014669      0.016359      0.065570      0.095716      0.201557      11.938825      11.637926
0.180000      0.016379      0.018056      0.073827      0.110938      0.241224      12.545767      12.237855
0.190000      0.018300      0.019958      0.084059      0.129844      0.290580      13.117436      12.808181
0.200000      0.020443      0.022073      0.096565      0.153088      0.351520      13.651275      13.346744
0.210000      0.022814      0.024410      0.111639      0.181347      0.426062      14.147640      13.853915
0.220000      0.025415      0.026970      0.129601      0.215358      0.516409      14.607726      14.330698
0.230000      0.028275      0.029784      0.151092      0.256414      0.626148      15.032691      14.777967
0.240000      0.031436      0.032890      0.176977      0.306244      0.760030      15.423481      15.196354
0.250000      0.034914      0.036307      0.208032      0.366475      0.922678      15.780974      15.586353
0.260000      0.038707      0.040032      0.244914      0.438557      1.118321      16.106450      15.948763
0.270000      0.042793      0.044044      0.288050      0.523554      1.350262      16.402481      16.285526
0.280000      0.047138      0.048310      0.337695      0.622206      1.620937      16.671799      16.598689
0.290000      0.051733      0.052822      0.394402      0.735782      1.934138      16.916968      16.890168
0.300000      0.056559      0.057562      0.458584      0.865290      2.292952      17.140278      17.161773
0.310000      0.061592      0.062506      0.530482      1.011397      2.699549      17.343890      17.415213
0.320000      0.066801      0.067623      0.610178      1.174448      3.155195      17.529815      17.652078
0.330000      0.072144      0.072873      0.697418      1.354107      3.659259      17.699859      17.873814
0.340000      0.077574      0.078209      0.791710      1.549531      4.209674      17.855739      18.081798
0.350000      0.083031      0.083574      0.892024      1.758782      4.801312      17.999083      18.277360
0.360000      0.088449      0.088902      0.996971      1.979145      5.426810      18.131398      18.461787
0.370000      0.093797      0.094164      1.105682      2.208895      6.081426      18.254136      18.636325
0.380000      0.099059      0.099344      1.217496      2.446685      6.761416      18.368516      18.802042
0.390000      0.104211      0.104418      1.331530      2.690689      7.461632      18.475423      18.959737
0.400000      0.109218      0.109349      1.446496      2.938228      8.174529      18.575686      19.110168
0.410000      0.114016      0.114079      1.560259      3.184879      8.887637      18.670103      19.254072
0.420000      0.118579      0.118579      1.671474      3.427774      9.592755      18.759439      19.392157
0.430000      0.122924      0.122866      1.779957      3.666431      10.288344      18.844430      19.525115
0.440000      0.127067      0.126958      1.885681      3.900690      10.973779      18.925646      19.653496
0.450000      0.131025      0.130869      1.988630      4.130410      11.648489      19.003468      19.777687
0.460000      0.134796      0.134598      2.088343      4.354539      12.309340      19.078260      19.898067
0.470000      0.138355      0.138119      2.183651      4.570547      12.949027      19.150370      20.015002
0.480000      0.141701      0.141433      2.274082      4.777347      13.564301      19.220134      20.128849
0.490000      0.144846      0.144551      2.359670      4.974922      14.154966      19.287880      20.239958
0.500000      0.147815      0.147495      2.440820      5.164031      14.723033      19.353841      20.348589
0.510000      0.150639      0.150298      2.518360      5.346345      15.273124      19.418179      20.454929
0.520000      0.153331      0.152973      2.592497      5.522240      15.806209      19.481047      20.559161
0.530000      0.155886      0.155512      2.662855      5.690856      16.319729      19.542594      20.661461
0.540000      0.158308      0.157922      2.729443      5.852155      16.813480      19.602963      20.762004
0.550000      0.160607      0.160212      2.792410      6.006401      17.288135      19.662289      20.860957
0.560000      0.162800      0.162397      2.852216      6.154535      17.746311      19.720668      20.958443
0.570000      0.164909      0.164500      2.909531      6.297950      18.191955      19.778168      21.054556
0.580000      0.166941      0.166527      2.964496      6.436920      18.625801      19.834852      21.149392
0.590000      0.168894      0.168477      3.017012      6.571198      19.047079      19.890786      21.243042
0.600000      0.170773      0.170354      3.067157      6.700921      19.456136      19.946032      21.335597
0.610000      0.172582      0.172163      3.115028      6.826270      19.853450      20.000646      21.427142
0.620000      0.174337      0.173919      3.161174      6.948417      20.242372      20.054659      21.517730
0.630000      0.176061      0.175643      3.206309      7.068903      20.627359      20.108091      21.607403
0.640000      0.177757      0.177341      3.250605      7.188100      21.009472      20.160960      21.696197
0.650000      0.179425      0.179011      3.294033      7.305926      21.388453      20.213282      21.784152
0.660000      0.181063      0.180651      3.336437      7.422027      21.763242      20.265075      21.871304
0.670000      0.182664      0.182255      3.377616      7.535936      22.132448      20.316354      21.957689
0.680000      0.184232      0.183826      3.417659      7.647835      22.496579      20.367139      22.043343
0.690000      0.185771      0.185369      3.456689      7.757985      22.856374      20.417448      22.128299
0.700000      0.187280      0.186882      3.494675      7.866304      23.211575      20.467298      22.212588
0.710000      0.188761      0.188367      3.531669      7.972894      23.562461      20.516708      22.296245
0.720000      0.190218      0.189829      3.567811      8.078059      23.909914      20.565694      22.379301
0.730000      0.191655      0.191272      3.603237      8.182098      24.254796      20.614271      22.461785
0.740000      0.193080      0.192702      3.638222      8.285623      24.598915      20.662442      22.543712
0.750000      0.194499      0.194127      3.673001      8.389166      24.943831      20.710209      22.625099
0.760000      0.195913      0.195546      3.707593      8.492762      25.289648      20.757573      22.705958
0.770000      0.197321      0.196959      3.741972      8.596353      25.636187      20.804534      22.786303
0.780000      0.198719      0.198363      3.776010      8.699637      25.982539      20.851095      22.866147
0.790000      0.200106      0.199756      3.809621      8.802407      26.328074      20.897256      22.945505
0.800000      0.201484      0.201139      3.842906      8.904894      26.673474      20.943019      23.024388
0.810000      0.202854      0.202516      3.875914      9.007201      27.019037      20.988388      23.102807
0.820000      0.204216      0.203884      3.908618      9.109262      27.364555      21.033365      23.180775
0.830000      0.205571      0.205244      3.941043      9.211131      27.710188      21.077952      23.258303
0.840000      0.206918      0.206597      3.973161      9.312733      28.055693      21.122153      23.335401
0.850000      0.208256      0.207942      4.004962      9.414042      28.400988      21.165970      23.412080
0.860000      0.209589      0.209281      4.036570      9.515340      28.746915      21.209404      23.488348
0.870000      0.210920      0.210618      4.068077      9.616844      29.094122      21.252458      23.564212
0.880000      0.212248      0.211952      4.099491      9.718567      29.442645      21.295133      23.639683
0.890000      0.213573      0.213283      4.130808      9.820497      29.792445      21.337431      23.714766
0.900000      0.214896      0.214612      4.162024      9.922624      30.143485      21.379354      23.789472
0.910000      0.216216      0.215939      4.193133      10.024931      30.495712      21.420903      23.863807
0.920000      0.217532      0.217261      4.224090      10.127304      30.848771      21.462079      23.937780
0.930000      0.218842      0.218577      4.254807      10.229530      31.202008      21.502884      24.011399
0.940000      0.220144      0.219886      4.285260      10.331547      31.555228      21.543320      24.084672
0.950000      0.221440      0.221189      4.315465      10.433381      31.908499      21.583387      24.157607
0.960000      0.222729      0.222484      4.345388      10.534950      32.261559      21.623086      24.230211
0.970000      0.224012      0.223773      4.375064      10.636329      32.614632      21.662420      24.302491
0.980000      0.225291      0.225058      4.404604      10.737785      32.968528      21.701388      24.374451
0.990000      0.226567      0.226342      4.434066      10.839451      33.323646      21.739993      24.446099
1.000000      0.227842      0.227623      4.463446      10.941320      33.679967      21.778236      24.517438
1.010000      0.229114      0.228902      4.492743      11.043383      34.037454      21.816117      24.588476
1.020000      0.230383      0.230178      4.521954      11.145628      34.396067      21.853637      24.659217
1.030000      0.231651      0.231452      4.551070      11.248034      34.755734      21.890799      24.729667
1.040000      0.232914      0.232722      4.580049      11.350489      35.116108      21.927603      24.799832
1.050000      0.234172      0.233987      4.608824      11.452825      35.476661      21.964049      24.869718
1.060000      0.235424      0.235246      4.637371      11.554977      35.837179      22.000139      24.939330
1.070000      0.236669      0.236499      4.665692      11.656940      36.197645      22.035874      25.008674
1.080000      0.237910      0.237746      4.693805      11.758756      36.558173      22.071254      25.077754
1.090000      0.239146      0.238990      4.721769      11.860567      36.919204      22.106280      25.146575
1.100000      0.240379      0.240230      4.749638      11.962503      37.281132      22.140953      25.215142
1.110000      0.241610      0.241469      4.777427      12.064598      37.644060      22.175273      25.283458
1.120000      0.242839      0.242704      4.805133      12.166844      38.007958      22.209241      25.351529
1.130000      0.244065      0.243938      4.832754      12.269232      38.372791      22.242858      25.419359
1.140000      0.245288      0.245169      4.860289      12.371752      38.738525      22.276124      25.486952
1.150000      0.246509      0.246397      4.887725      12.474371      39.105054      22.309041      25.554313
1.160000      0.247725      0.247621      4.915020      12.576975      39.472011      22.341607      25.621446
1.170000      0.248936      0.248839      4.942113      12.679406      39.838894      22.373825      25.688355
1.180000      0.250140      0.250052      4.968980      12.781593      40.205472      22.405694      25.755046
1.190000      0.251339      0.251258      4.995634      12.883565      40.571825      22.437216      25.821522
1.200000      0.252533      0.252460      5.022120      12.985433      40.938301      22.468389      25.887787
1.210000      0.253724      0.253659      5.048498      13.087344      41.305351      22.499215      25.953845
1.220000      0.254912      0.254855      5.074796      13.189369      41.673196      22.529692      26.019700
1.230000      0.256097      0.256049      5.101018      13.291516      42.041855      22.559823      26.085354
1.240000      0.257280      0.257240      5.127163      13.393777      42.411302      22.589606      26.150812
1.250000      0.258461      0.258428      5.153230      13.496146      42.781508      22.619042      26.216077
1.260000      0.259639      0.259614      5.179215      13.598612      43.152436      22.648131      26.281154
1.270000      0.260813      0.260798      5.205105      13.701132      43.523947      22.676873      26.346045
1.280000      0.261984      0.261977      5.230856      13.803588      43.895656      22.705267      26.410754
1.290000      0.263148      0.263149      5.256378      13.905740      44.266795      22.733315      26.475285
1.300000      0.264303      0.264314      5.281603      14.007398      44.636749      22.761016      26.539641
1.310000      0.265452      0.265471      5.306578      14.108678      45.005881      22.788369      26.603826
1.320000      0.266597      0.266624      5.331408      14.209857      45.375062      22.815375      26.667843
1.330000      0.267738      0.267775      5.356157      14.311097      45.744803      22.842032      26.731696
1.340000      0.268877      0.268923      5.380839      14.412434      46.115217      22.868340      26.795386
1.350000      0.270014      0.270069      5.405455      14.513868      46.486298      22.894299      26.858918
1.360000      0.271148      0.271212      5.430005      14.615393      46.858024      22.919907      26.922295
1.370000      0.272280      0.272353      5.454487      14.717003      47.230371      22.945165      26.985519
1.380000      0.273408      0.273491      5.478898      14.818685      47.603292      22.970072      27.048594
1.390000      0.274534      0.274626      5.503218      14.920382      47.976601      22.994626      27.111523
1.400000      0.275655      0.275756      5.527389      15.021931      48.349765      23.018827      27.174308
1.410000      0.276768      0.276879      5.551282      15.122978      48.721640      23.042676      27.236954
1.420000      0.277871      0.277992      5.574818      15.223296      49.091482      23.066170      27.299462
1.430000      0.278967      0.279098      5.598100      15.323162      49.460175      23.089308      27.361837
1.440000      0.280059      0.280200      5.621269      15.422952      49.828925      23.112091      27.424080
1.450000      0.281149      0.281299      5.644371      15.522792      50.198130      23.134515      27.486195
1.460000      0.282236      0.282396      5.667414      15.622698      50.567845      23.156580      27.548185
1.470000      0.283320      0.283491      5.690398      15.722669      50.938056      23.178285      27.610052
1.480000      0.284402      0.284583      5.713324      15.822701      51.308750      23.199628      27.671799
1.490000      0.285482      0.285673      5.736190      15.922787      51.679898      23.220608      27.733429
1.500000      0.286558      0.286760      5.758989      16.022906      52.051425      23.241223      27.794945
1.510000      0.287631      0.287844      5.781702      16.123000      52.423145      23.261472      27.856349
1.520000      0.288699      0.288922      5.804229      16.222783      52.794117      23.281354      27.917645
1.530000      0.289755      0.289989      5.826346      16.321627      53.162290      23.300866      27.978834
1.540000      0.290798      0.291042      5.847971      16.419288      53.526853      23.320009      28.039921
1.550000      0.291832      0.292088      5.869314      16.516347      53.889693      23.338778      28.100907
1.560000      0.292863      0.293130      5.890567      16.613336      54.252535      23.357173      28.161795
1.570000      0.293892      0.294169      5.911763      16.710347      54.615674      23.375191      28.222589
1.580000      0.294918      0.295206      5.932907      16.807387      54.979130      23.392829      28.283290
1.590000      0.295941      0.296241      5.953998      16.904455      55.342896      23.410086      28.343903
1.600000      0.296962      0.297273      5.975037      17.001549      55.706962      23.426959      28.404428
1.610000      0.297980      0.298303      5.996021      17.098655      56.071274      23.443445      28.464870
1.620000      0.298995      0.299329      6.016936      17.195733      56.435700      23.459543      28.525231
1.630000      0.300006      0.300352      6.037753      17.292692      56.799938      23.475250      28.585512
1.640000      0.301008      0.301366      6.058262      17.388928      57.161997      23.490562      28.645718
1.650000      0.301993      0.302363      6.078120      17.483448      57.518595      23.505479      28.705851
1.660000      0.302960      0.303342      6.097329      17.576240      57.869680      23.519997      28.765913
1.670000      0.303919      0.304313      6.116246      17.668320      58.218585      23.534113      28.825908
1.680000      0.304874      0.305280      6.135089      17.760316      58.567364      23.547824      28.885838
