# QTMix Mixer Data
# 
# IV data file: /data/simulations/saturation/plot-6/31Jul03_akima_spline.IV
# KK data file: /data/simulations/saturation/plot-6/31Jul03_akima_spline.KK
# 
# Impedances:
#  IF:  2.5 + 0i
#  Fundamental:  1 + 0i
#  Harmonic 1 :  1 + 0i
#  Harmonic 2 :   1 + 0i
# 
# Actual Impedances:
#  IF:  2.5 + -0i
#  EmbImp.Z = 1 + 0i
#  LO:  1 + -0i
# Operating Point:
# Bias       : 0.9
# LO Freq    : 0.33
# LO Voltage : 1
# IF Freq    : 0.01
# 
# Harmonics : 1
# 
# Scan variable : IF Frequency
# 
# X Axis | Unpump DC | Unpump KK | Pump DC | LSB Gain | USB Gain | IF Output | Noise Temp | LO Fundamental Current 
0	0	0	0.347185	2.30612	2.30612	29.8236	5.60786	0.432295
0.0032	0.000255288	3.30427e-06	0.347185	1.63549	1.62164	14.9238	5.67506	0.432295
0.0064	0.000510358	1.32412e-05	0.347185	1.63588	1.60829	14.8104	5.72582	0.432295
0.0096	0.000764992	2.98469e-05	0.347185	1.63174	1.59062	14.6203	5.77863	0.432295
0.0128	0.00101897	5.31576e-05	0.347185	1.62313	1.56879	14.357	5.83356	0.432295
0.016	0.00127208	8.32094e-05	0.347185	1.61018	1.54303	14.0254	5.89069	0.432295
0.0192	0.00152413	0.00012004	0.347185	1.59306	1.51362	13.6319	5.95011	0.432295
0.0224	0.00177492	0.000163707	0.347185	1.57207	1.48091	13.1847	6.01195	0.432295
0.0256	0.00202427	0.000214275	0.347185	1.54759	1.44535	12.6935	6.07629	0.432295
0.0288	0.00227199	0.000271811	0.347185	1.51999	1.40736	12.1678	6.14328	0.432295
0.032	0.00251789	0.00033638	0.347185	1.48945	1.36718	11.6133	6.21308	0.432295
0.0352	0.00276177	0.000408048	0.347185	1.45592	1.32481	11.0326	6.28597	0.432295
0.0384	0.00300344	0.000486897	0.347185	1.41956	1.28048	10.4317	6.36229	0.432295
0.0416	0.00324272	0.00057302	0.347185	1.3807	1.23451	9.81829	6.44236	0.432295
0.0448	0.0034794	0.000666516	0.347185	1.33968	1.18728	9.20014	6.52656	0.432295
0.048	0.00371332	0.000767493	0.347185	1.29679	1.13909	8.58359	6.61533	0.432295
0.0512	0.00394428	0.000876061	0.347185	1.25228	1.09017	7.97375	6.7092	0.432295
0.0544	0.00417209	0.000992342	0.347185	1.20629	1.0407	7.37438	6.80884	0.432295
0.0576	0.00439659	0.00111647	0.347185	1.15892	0.990766	6.78802	6.91514	0.432295
0.0608	0.00461758	0.00124857	0.347185	1.11016	0.940383	6.21611	7.02924	0.432295
0.064	0.00483489	0.0013888	0.347185	1.05985	0.889462	5.65878	7.15267	0.432295
0.0672	0.00504834	0.00153731	0.347185	1.00764	0.83772	5.11431	7.28769	0.432295
0.0704	0.00525777	0.00169427	0.347185	0.953125	0.784873	4.58169	7.43749	0.432295
0.0736	0.00546299	0.00185985	0.347185	0.895054	0.729938	4.05363	7.60804	0.432295
0.0768	0.00566384	0.00203425	0.347185	0.831846	0.671726	3.52452	7.81116	0.432295
0.08	0.00586016	0.00221764	0.347185	0.75589	0.604296	2.9547	8.09122	0.432295
0.0832	0.00605178	0.00241023	0.347185	0.685362	0.542534	2.49454	8.47493	0.432295
0.0864	0.00623853	0.00261224	0.347185	0.627857	0.492078	2.15706	8.90827	0.432295
0.0896	0.00642024	0.0028239	0.347185	0.57058	0.44265	1.8528	9.45603	0.432295
0.0928	0.00659676	0.00304548	0.347185	0.515491	0.395989	1.6008	10.2087	0.432295
0.096	0.00676792	0.00327723	0.347185	0.469921	0.35743	1.41562	11.0807	0.432295
0.0992	0.00693359	0.00351945	0.347185	0.424155	0.319627	1.25407	12.2754	0.432295
0.1024	0.00709365	0.00377243	0.347185	0.388441	0.29026	1.15024	13.6525	0.432295
0.1056	0.00724798	0.00403648	0.347185	0.359484	0.26658	1.07957	15.1913	0.432295
0.1088	0.00739643	0.00431188	0.347185	0.3388	0.249726	1.04537	16.7626	0.432295
0.112	0.00753882	0.00459892	0.347185	0.32861	0.240732	1.04349	18.0062	0.432295
0.1152	0.00767491	0.00489807	0.347185	0.319782	0.232836	1.04316	19.2421	0.432295
0.1184	0.00780449	0.00520983	0.347185	0.315229	0.22826	1.05647	20.2768	0.432295
0.1216	0.00792734	0.00553484	0.347185	0.315656	0.227159	1.08307	20.9891	0.432295
0.1248	0.00804347	0.00587394	0.347185	0.317827	0.227182	1.11298	21.5645	0.432295
0.128	0.00815309	0.00622797	0.347185	0.320986	0.22779	1.14438	22.0547	0.432295
0.1312	0.00825639	0.00659748	0.347185	0.324843	0.228779	1.17672	22.4823	0.432295
0.1344	0.00835359	0.00698369	0.347185	0.32925	0.230044	1.20979	22.8607	0.432295
0.1376	0.00844539	0.00738884	0.347185	0.334133	0.231526	1.24352	23.1981	0.432295
0.1408	0.00853339	0.00781286	0.347185	0.339446	0.233191	1.2779	23.5003	0.432295
0.144	0.00861924	0.008255	0.347185	0.34517	0.235017	1.31296	23.7713	0.432295
0.1472	0.0087046	0.0087145	0.347185	0.351293	0.236989	1.34874	24.0145	0.432295
0.1504	0.00879083	0.00919061	0.347185	0.357811	0.239096	1.38529	24.2323	0.432295
0.1536	0.0088779	0.00968261	0.347185	0.364736	0.241337	1.42269	24.4265	0.432295
0.1568	0.00896543	0.0101901	0.347185	0.372089	0.243715	1.46106	24.5982	0.432295
0.16	0.00905305	0.0107128	0.347185	0.379898	0.246234	1.50053	24.7484	0.432295
0.1632	0.00914042	0.0112504	0.347185	0.388193	0.248899	1.54123	24.8783	0.432295
0.1664	0.00922744	0.0118028	0.347185	0.397005	0.251714	1.5833	24.9889	0.432295
0.1696	0.00931423	0.0123696	0.347185	0.406357	0.254679	1.62685	25.082	0.432295
0.1728	0.00940088	0.0129507	0.347185	0.416274	0.257792	1.67199	25.1591	0.432295
0.176	0.0094875	0.0135462	0.347185	0.426795	0.261057	1.71888	25.2216	0.432295
0.1792	0.00957413	0.0141558	0.347185	0.437974	0.264487	1.76772	25.27	0.432295
0.1824	0.00966076	0.0147797	0.347185	0.449883	0.268096	1.8188	25.3048	0.432295
0.1856	0.00974735	0.0154178	0.347185	0.46262	0.27191	1.8725	25.3263	0.432295
0.1888	0.00983389	0.01607	0.347185	0.476299	0.275955	1.92926	25.3346	0.432295
0.192	0.00992035	0.0167363	0.347185	0.491067	0.280268	1.98967	25.3298	0.432295
0.1952	0.0100067	0.0174166	0.347185	0.507115	0.284898	2.05447	25.3117	0.432295
0.1984	0.0100931	0.0181111	0.347185	0.524701	0.289912	2.12471	25.2795	0.432295
0.2016	0.0101793	0.0188195	0.347185	0.54418	0.295401	2.20184	25.2325	0.432295
0.2048	0.0102655	0.0195419	0.347185	0.566067	0.301502	2.288	25.1696	0.432295
0.208	0.0103517	0.0202783	0.347185	0.591169	0.308424	2.38663	25.0893	0.432295
0.2112	0.0104378	0.0210287	0.347185	0.620823	0.316507	2.5036	24.9918	0.432295
0.2144	0.0105239	0.0217931	0.347185	0.657328	0.326253	2.64951	24.8918	0.432295
0.2176	0.0106099	0.0225715	0.347185	0.695541	0.336006	2.80393	24.8354	0.432295
0.2208	0.0106958	0.0233639	0.347185	0.73971	0.34718	2.98503	24.7651	0.432295
0.224	0.0107817	0.0241704	0.347185	0.797807	0.361446	3.23072	24.7294	0.432295
0.2272	0.0108676	0.0249909	0.347185	0.853023	0.37356	3.4659	24.8368	0.432295
0.2304	0.0109534	0.0258254	0.347185	0.908703	0.384509	3.70181	25.038	0.432295
0.2336	0.0110391	0.026674	0.347185	0.956269	0.391296	3.89088	25.4119	0.432295
0.2368	0.0111249	0.0275366	0.347185	0.982594	0.391274	3.96602	25.9056	0.432295
0.24	0.0112105	0.0284133	0.347185	1.00431	0.38863	4.0047	26.5154	0.432295
0.2432	0.0112962	0.0293042	0.347185	0.997527	0.377913	3.89819	27.2948	0.432295
0.2464	0.0113817	0.0302091	0.347185	0.985746	0.366368	3.7712	28.096	0.432295
0.2496	0.0114673	0.0311283	0.347185	0.967808	0.352714	3.61533	29.0604	0.432295
0.2528	0.0115528	0.0320617	0.347185	0.927652	0.334371	3.37731	30.2074	0.432295
0.256	0.0116382	0.0330093	0.347185	0.889739	0.319012	3.17684	31.2164	0.432295
0.2592	0.0117236	0.0339711	0.347185	0.857232	0.306126	3.01446	32.1669	0.432295
0.2624	0.011809	0.0349473	0.347185	0.829323	0.295152	2.88137	33.0756	0.432295
0.2656	0.0118943	0.0359379	0.347185	0.804925	0.285581	2.76977	33.9613	0.432295
0.2688	0.0119796	0.0369428	0.347185	0.783374	0.277121	2.67497	34.8321	0.432295
0.272	0.0120649	0.0379621	0.347185	0.764162	0.269549	2.5935	35.6953	0.432295
0.2752	0.0121501	0.0389958	0.347185	0.746872	0.2627	2.52275	36.5557	0.432295
0.2784	0.0122352	0.0400441	0.347185	0.731195	0.256452	2.4608	37.4166	0.432295
0.2816	0.0123204	0.0411069	0.347185	0.716889	0.25071	2.40616	38.2809	0.432295
0.2848	0.0124054	0.0421844	0.347185	0.703757	0.245398	2.35767	39.1508	0.432295
0.288	0.0124905	0.0432765	0.347185	0.691643	0.240458	2.31442	40.0279	0.432295
0.2912	0.0125754	0.0443833	0.347185	0.680427	0.235844	2.27569	40.9133	0.432295
0.2944	0.0126604	0.0455049	0.347185	0.670019	0.231518	2.24091	41.8077	0.432295
0.2976	0.0127452	0.0466413	0.347185	0.660357	0.22745	2.20964	42.712	0.432295
0.3008	0.0128301	0.0477926	0.347185	0.651392	0.223611	2.18149	43.6282	0.432295
0.304	0.0129149	0.0489588	0.347185	0.643061	0.219966	2.15605	44.5604	0.432295
0.3072	0.0129996	0.0501401	0.347185	0.635268	0.216482	2.13292	45.5125	0.432295
0.3104	0.0130844	0.0513364	0.347185	0.627942	0.21314	2.11182	46.4863	0.432295
0.3136	0.0131691	0.0525478	0.347185	0.62105	0.209927	2.09254	47.4826	0.432295
0.3168	0.0132538	0.0537744	0.347185	0.614569	0.206831	2.07491	48.503	0.432295
0.32	0.0133384	0.0550163	0.347185	0.60852	0.203846	2.05887	49.5475	0.432295
